#Temperatur[C]	#Strom[pA]
-55.6	-2.2
-54.1	-2.2
-52.8	-2.2
-51.2	-2.1
-49.7	-2.0
-48.2	-1.9
-46.5	-1.7
-44.7	-1.5
-43.0	-1
-41.0	-0.5
-39.1	-0.1
-37.1	0.7
-35.1	1.6
-33.1	2.8
-31.1	4.3
-29.0	6.5
-26.9	9.2
-24.7	14
-22.4	19.5
-20.4	27.5
-18.3	36
-16.4	45
-14.5	54
-12.5	60
-10.5	62
-8.5	59
-6.8	50
-5.0	38
-3.1	26
-1.3	17
0.5	12
2.3	10.5
4.2	10.5
6.3	11.5
8.2	13
10.1	14.5
12.0	16
13.9	18
15.7	19
17.7	20.5
19.7	22
21.7	23
23.9	24
26.0	24.5
28.1	24
30.2	23
32.2	21.5
34.2	19.5
36.2	16
38.1	13
40.1	10.5
41.9	8
43.9	6
45.8	4.9
47.7	4.4
49.4	4.2
51.0	4.4